##TITLE=glucose
##JCAMP-DX=4.24
##DATA TYPE=INFRARED SPECTRUM
##DATE=2012/10/19
##SAMPLING PROCEDURE=
##ORIGIN=Default
##XUNITS=1/CM
##YUNITS=ABSORBANCE
##RESOLUTION=4
##FIRSTX=9999.1003
##LASTX=3999.6401
##DELTAX=-1.9284668
##MAXY=1.1117632
##MINY=0.14746292
##XFACTOR=1
##YFACTOR=1.0354102e-009
##NPOINTS=3112
##FIRSTY=0.14815272
##XYDATA=(X++(Y..Y))
9999.100300,0.148153
9997.171833,0.148323
9995.243366,0.148568
9993.314900,0.149010
9991.386433,0.149312
9989.457966,0.149366
9987.529499,0.149313
9985.601032,0.149276
9983.672566,0.149493
9981.744099,0.149979
9979.815632,0.150348
9977.887165,0.150487
9975.958698,0.150654
9974.030232,0.150912
9972.101765,0.151134
9970.173298,0.151274
9968.244831,0.151264
9966.316364,0.151087
9964.387898,0.151015
9962.459431,0.151274
9960.530964,0.151685
9958.602497,0.151938
9956.674030,0.151946
9954.745564,0.151826
9952.817097,0.151767
9950.888630,0.151852
9948.960163,0.151972
9947.031696,0.152050
9945.103230,0.152228
9943.174763,0.152659
9941.246296,0.153209
9939.317829,0.153655
9937.389362,0.153932
9935.460896,0.153984
9933.532429,0.153927
9931.603962,0.153994
9929.675495,0.154153
9927.747028,0.154284
9925.818562,0.154307
9923.890095,0.154224
9921.961628,0.154198
9920.033161,0.154374
9918.104694,0.154756
9916.176228,0.155090
9914.247761,0.155059
9912.319294,0.154862
9910.390827,0.154930
9908.462360,0.155148
9906.533894,0.155221
9904.605427,0.155230
9902.676960,0.155372
9900.748493,0.155664
9898.820026,0.155953
9896.891560,0.156099
9894.963093,0.156214
9893.034626,0.156475
9891.106159,0.156744
9889.177692,0.156845
9887.249226,0.156897
9885.320759,0.156964
9883.392292,0.157035
9881.463825,0.157206
9879.535358,0.157467
9877.606892,0.157688
9875.678425,0.157690
9873.749958,0.157445
9871.821491,0.157302
9869.893024,0.157545
9867.964558,0.157927
9866.036091,0.158115
9864.107624,0.158106
9862.179157,0.158014
9860.250690,0.157985
9858.322224,0.158166
9856.393757,0.158406
9854.465290,0.158492
9852.536823,0.158584
9850.608356,0.158875
9848.679890,0.159194
9846.751423,0.159264
9844.822956,0.159179
9842.894489,0.159232
9840.966022,0.159303
9839.037556,0.159174
9837.109089,0.159136
9835.180622,0.159468
9833.252155,0.159893
9831.323688,0.160081
9829.395222,0.160073
9827.466755,0.160099
9825.538288,0.160255
9823.609821,0.160417
9821.681354,0.160574
9819.752888,0.160772
9817.824421,0.160843
9815.895954,0.160736
9813.967487,0.160621
9812.039020,0.160618
9810.110554,0.160702
9808.182087,0.160804
9806.253620,0.160995
9804.325153,0.161263
9802.396686,0.161417
9800.468220,0.161351
9798.539753,0.161113
9796.611286,0.160910
9794.682819,0.160995
9792.754352,0.161369
9790.825886,0.161694
9788.897419,0.161755
9786.968952,0.161761
9785.040485,0.161852
9783.112018,0.161926
9781.183552,0.161916
9779.255085,0.161895
9777.326618,0.161989
9775.398151,0.162109
9773.469684,0.162079
9771.541218,0.161998
9769.612751,0.161984
9767.684284,0.161960
9765.755817,0.161982
9763.827350,0.162138
9761.898884,0.162265
9759.970417,0.162272
9758.041950,0.162258
9756.113483,0.162284
9754.185016,0.162344
9752.256550,0.162412
9750.328083,0.162522
9748.399616,0.162684
9746.471149,0.162798
9744.542682,0.162781
9742.614216,0.162677
9740.685749,0.162670
9738.757282,0.162806
9736.828815,0.162900
9734.900348,0.162903
9732.971882,0.162976
9731.043415,0.163094
9729.114948,0.163078
9727.186481,0.163065
9725.258014,0.163249
9723.329548,0.163503
9721.401081,0.163603
9719.472614,0.163461
9717.544147,0.163262
9715.615680,0.163127
9713.687214,0.162969
9711.758747,0.162876
9709.830280,0.162976
9707.901813,0.163217
9705.973346,0.163390
9704.044880,0.163307
9702.116413,0.163051
9700.187946,0.162874
9698.259479,0.162943
9696.331012,0.163202
9694.402546,0.163411
9692.474079,0.163362
9690.545612,0.163154
9688.617145,0.163040
9686.688678,0.163011
9684.760212,0.162999
9682.831745,0.163051
9680.903278,0.163120
9678.974811,0.163115
9677.046344,0.163117
9675.117878,0.163245
9673.189411,0.163399
9671.260944,0.163475
9669.332477,0.163495
9667.404010,0.163434
9665.475544,0.163326
9663.547077,0.163244
9661.618610,0.163220
9659.690143,0.163342
9657.761676,0.163577
9655.833210,0.163651
9653.904743,0.163448
9651.976276,0.163162
9650.047809,0.162995
9648.119342,0.163060
9646.190876,0.163325
9644.262409,0.163508
9642.333942,0.163426
9640.405475,0.163273
9638.477008,0.163267
9636.548542,0.163347
9634.620075,0.163316
9632.691608,0.163120
9630.763141,0.163024
9628.834674,0.163172
9626.906208,0.163308
9624.977741,0.163397
9623.049274,0.163584
9621.120807,0.163699
9619.192340,0.163597
9617.263874,0.163375
9615.335407,0.163229
9613.406940,0.163308
9611.478473,0.163431
9609.550006,0.163377
9607.621540,0.163260
9605.693073,0.163221
9603.764606,0.163312
9601.836139,0.163440
9599.907672,0.163343
9597.979206,0.163028
9596.050739,0.162711
9594.122272,0.162499
9592.193805,0.162505
9590.265338,0.162735
9588.336872,0.162996
9586.408405,0.163137
9584.479938,0.163158
9582.551471,0.163109
9580.623004,0.163000
9578.694538,0.162872
9576.766071,0.162868
9574.837604,0.162941
9572.909137,0.162901
9570.980670,0.162759
9569.052204,0.162609
9567.123737,0.162555
9565.195270,0.162622
9563.266803,0.162701
9561.338336,0.162756
9559.409870,0.162757
9557.481403,0.162645
9555.552936,0.162432
9553.624469,0.162238
9551.696002,0.162167
9549.767536,0.162116
9547.839069,0.161988
9545.910602,0.161862
9543.982135,0.161800
9542.053668,0.161764
9540.125202,0.161783
9538.196735,0.161916
9536.268268,0.161988
9534.339801,0.161848
9532.411334,0.161615
9530.482868,0.161484
9528.554401,0.161615
9526.625934,0.161904
9524.697467,0.162087
9522.769000,0.162085
9520.840534,0.161954
9518.912067,0.161773
9516.983600,0.161524
9515.055133,0.161156
9513.126666,0.160881
9511.198200,0.160914
9509.269733,0.161147
9507.341266,0.161379
9505.412799,0.161426
9503.484332,0.161208
9501.555866,0.160955
9499.627399,0.160823
9497.698932,0.160709
9495.770465,0.160627
9493.841998,0.160625
9491.913532,0.160662
9489.985065,0.160739
9488.056598,0.160711
9486.128131,0.160481
9484.199664,0.160247
9482.271198,0.160173
9480.342731,0.160226
9478.414264,0.160224
9476.485797,0.160071
9474.557330,0.159913
9472.628864,0.159794
9470.700397,0.159679
9468.771930,0.159678
9466.843463,0.159756
9464.914996,0.159715
9462.986530,0.159533
9461.058063,0.159411
9459.129596,0.159486
9457.201129,0.159681
9455.272662,0.159854
9453.344196,0.159882
9451.415729,0.159747
9449.487262,0.159624
9447.558795,0.159607
9445.630328,0.159588
9443.701862,0.159555
9441.773395,0.159512
9439.844928,0.159342
9437.916461,0.159156
9435.987994,0.159116
9434.059528,0.159129
9432.131061,0.159154
9430.202594,0.159204
9428.274127,0.159156
9426.345660,0.159034
9424.417194,0.159024
9422.488727,0.159058
9420.560260,0.158899
9418.631793,0.158608
9416.703326,0.158502
9414.774860,0.158657
9412.846393,0.158805
9410.917926,0.158806
9408.989459,0.158818
9407.060992,0.158903
9405.132526,0.158940
9403.204059,0.158850
9401.275592,0.158705
9399.347125,0.158637
9397.418658,0.158558
9395.490192,0.158299
9393.561725,0.157999
9391.633258,0.157966
9389.704791,0.158186
9387.776324,0.158345
9385.847858,0.158332
9383.919391,0.158323
9381.990924,0.158318
9380.062457,0.158169
9378.133990,0.158013
9376.205524,0.158035
9374.277057,0.158099
9372.348590,0.158135
9370.420123,0.158162
9368.491656,0.158012
9366.563190,0.157808
9364.634723,0.157788
9362.706256,0.157742
9360.777789,0.157597
9358.849322,0.157659
9356.920856,0.157846
9354.992389,0.157819
9353.063922,0.157748
9351.135455,0.157917
9349.206988,0.158075
9347.278522,0.157918
9345.350055,0.157573
9343.421588,0.157348
9341.493121,0.157403
9339.564654,0.157579
9337.636188,0.157591
9335.707721,0.157479
9333.779254,0.157426
9331.850787,0.157403
9329.922320,0.157400
9327.993854,0.157469
9326.065387,0.157568
9324.136920,0.157654
9322.208453,0.157660
9320.279986,0.157568
9318.351520,0.157520
9316.423053,0.157529
9314.494586,0.157427
9312.566119,0.157270
9310.637652,0.157222
9308.709186,0.157164
9306.780719,0.156996
9304.852252,0.156893
9302.923785,0.156942
9300.995318,0.157049
9299.066852,0.157165
9297.138385,0.157246
9295.209918,0.157175
9293.281451,0.156996
9291.352984,0.156886
9289.424518,0.156896
9287.496051,0.156980
9285.567584,0.157038
9283.639117,0.157000
9281.710650,0.156912
9279.782184,0.156830
9277.853717,0.156837
9275.925250,0.156952
9273.996783,0.157050
9272.068316,0.157078
9270.139850,0.157067
9268.211383,0.157021
9266.282916,0.157040
9264.354449,0.157180
9262.425982,0.157303
9260.497516,0.157331
9258.569049,0.157207
9256.640582,0.156908
9254.712115,0.156669
9252.783648,0.156620
9250.855182,0.156647
9248.926715,0.156647
9246.998248,0.156598
9245.069781,0.156636
9243.141314,0.156764
9241.212848,0.156723
9239.284381,0.156505
9237.355914,0.156320
9235.427447,0.156262
9233.498980,0.156369
9231.570514,0.156550
9229.642047,0.156598
9227.713580,0.156518
9225.785113,0.156470
9223.856646,0.156480
9221.928180,0.156496
9219.999713,0.156518
9218.071246,0.156530
9216.142779,0.156485
9214.214312,0.156487
9212.285846,0.156591
9210.357379,0.156562
9208.428912,0.156275
9206.500445,0.155967
9204.571978,0.155918
9202.643512,0.156108
9200.715045,0.156284
9198.786578,0.156319
9196.858111,0.156232
9194.929644,0.156025
9193.001178,0.155796
9191.072711,0.155746
9189.144244,0.155890
9187.215777,0.156060
9185.287310,0.156103
9183.358844,0.155952
9181.430377,0.155729
9179.501910,0.155599
9177.573443,0.155607
9175.644976,0.155716
9173.716510,0.155791
9171.788043,0.155761
9169.859576,0.155787
9167.931109,0.155968
9166.002642,0.156073
9164.074176,0.155898
9162.145709,0.155645
9160.217242,0.155589
9158.288775,0.155678
9156.360308,0.155673
9154.431842,0.155553
9152.503375,0.155498
9150.574908,0.155486
9148.646441,0.155380
9146.717974,0.155269
9144.789508,0.155249
9142.861041,0.155207
9140.932574,0.155144
9139.004107,0.155213
9137.075640,0.155399
9135.147174,0.155546
9133.218707,0.155575
9131.290240,0.155497
9129.361773,0.155396
9127.433306,0.155379
9125.504840,0.155345
9123.576373,0.155179
9121.647906,0.155029
9119.719439,0.154972
9117.790972,0.154906
9115.862506,0.154869
9113.934039,0.154926
9112.005572,0.154982
9110.077105,0.154953
9108.148638,0.154883
9106.220172,0.154883
9104.291705,0.154964
9102.363238,0.154963
9100.434771,0.154858
9098.506304,0.154778
9096.577838,0.154734
9094.649371,0.154692
9092.720904,0.154676
9090.792437,0.154650
9088.863970,0.154554
9086.935504,0.154450
9085.007037,0.154395
9083.078570,0.154350
9081.150103,0.154280
9079.221636,0.154150
9077.293170,0.154049
9075.364703,0.154074
9073.436236,0.154121
9071.507769,0.154085
9069.579302,0.153982
9067.650836,0.153868
9065.722369,0.153715
9063.793902,0.153451
9061.865435,0.153224
9059.936968,0.153233
9058.008502,0.153334
9056.080035,0.153315
9054.151568,0.153247
9052.223101,0.153235
9050.294634,0.153202
9048.366168,0.153096
9046.437701,0.153015
9044.509234,0.153010
9042.580767,0.153051
9040.652300,0.153042
9038.723834,0.152831
9036.795367,0.152464
9034.866900,0.152204
9032.938433,0.152265
9031.009966,0.152553
9029.081500,0.152656
9027.153033,0.152426
9025.224566,0.152114
9023.296099,0.151904
9021.367632,0.151847
9019.439166,0.151903
9017.510699,0.151957
9015.582232,0.151948
9013.653765,0.151879
9011.725298,0.151769
9009.796832,0.151692
9007.868365,0.151635
9005.939898,0.151491
9004.011431,0.151327
9002.082964,0.151227
9000.154498,0.151178
8998.226031,0.151196
8996.297564,0.151230
8994.369097,0.151241
8992.440630,0.151225
8990.512164,0.151123
8988.583697,0.151007
8986.655230,0.150994
8984.726763,0.150981
8982.798296,0.150849
8980.869830,0.150707
8978.941363,0.150624
8977.012896,0.150524
8975.084429,0.150426
8973.155962,0.150393
8971.227496,0.150337
8969.299029,0.150193
8967.370562,0.150114
8965.442095,0.150160
8963.513628,0.150153
8961.585162,0.150088
8959.656695,0.150097
8957.728228,0.150111
8955.799761,0.150012
8953.871294,0.149818
8951.942828,0.149654
8950.014361,0.149605
8948.085894,0.149603
8946.157427,0.149578
8944.228960,0.149551
8942.300494,0.149498
8940.372027,0.149421
8938.443560,0.149315
8936.515093,0.149139
8934.586626,0.149031
8932.658160,0.149134
8930.729693,0.149288
8928.801226,0.149296
8926.872759,0.149225
8924.944292,0.149147
8923.015826,0.148991
8921.087359,0.148803
8919.158892,0.148692
8917.230425,0.148639
8915.301958,0.148532
8913.373492,0.148341
8911.445025,0.148243
8909.516558,0.148326
8907.588091,0.148424
8905.659624,0.148468
8903.731158,0.148522
8901.802691,0.148541
8899.874224,0.148420
8897.945757,0.148216
8896.017290,0.148069
8894.088824,0.148003
8892.160357,0.148019
8890.231890,0.148115
8888.303423,0.148174
8886.374956,0.148125
8884.446490,0.148032
8882.518023,0.147932
8880.589556,0.147813
8878.661089,0.147720
8876.732622,0.147690
8874.804156,0.147695
8872.875689,0.147744
8870.947222,0.147842
8869.018755,0.147875
8867.090288,0.147784
8865.161822,0.147674
8863.233355,0.147639
8861.304888,0.147656
8859.376421,0.147684
8857.447954,0.147702
8855.519488,0.147685
8853.591021,0.147630
8851.662554,0.147574
8849.734087,0.147527
8847.805620,0.147463
8845.877154,0.147473
8843.948687,0.147613
8842.020220,0.147689
8840.091753,0.147641
8838.163286,0.147663
8836.234820,0.147768
8834.306353,0.147799
8832.377886,0.147747
8830.449419,0.147709
8828.520952,0.147696
8826.592486,0.147670
8824.664019,0.147724
8822.735552,0.147984
8820.807085,0.148281
8818.878618,0.148383
8816.950152,0.148410
8815.021685,0.148506
8813.093218,0.148634
8811.164751,0.148852
8809.236284,0.149171
8807.307818,0.149438
8805.379351,0.149611
8803.450884,0.149806
8801.522417,0.150097
8799.593950,0.150483
8797.665484,0.150909
8795.737017,0.151300
8793.808550,0.151722
8791.880083,0.152235
8789.951616,0.152624
8788.023150,0.152766
8786.094683,0.152844
8784.166216,0.153037
8782.237749,0.153461
8780.309282,0.154120
8778.380816,0.154862
8776.452349,0.155611
8774.523882,0.156345
8772.595415,0.156971
8770.666948,0.157455
8768.738482,0.157741
8766.810015,0.157661
8764.881548,0.157198
8762.953081,0.156555
8761.024614,0.155964
8759.096148,0.155568
8757.167681,0.155363
8755.239214,0.155271
8753.310747,0.155280
8751.382280,0.155366
8749.453814,0.155457
8747.525347,0.155579
8745.596880,0.155813
8743.668413,0.156126
8741.739946,0.156420
8739.811480,0.156678
8737.883013,0.156940
8735.954546,0.157162
8734.026079,0.157271
8732.097612,0.157282
8730.169146,0.157346
8728.240679,0.157559
8726.312212,0.157782
8724.383745,0.157876
8722.455278,0.157899
8720.526812,0.157965
8718.598345,0.158119
8716.669878,0.158292
8714.741411,0.158387
8712.812944,0.158406
8710.884478,0.158467
8708.956011,0.158645
8707.027544,0.158897
8705.099077,0.159207
8703.170610,0.159507
8701.242144,0.159696
8699.313677,0.159819
8697.385210,0.159977
8695.456743,0.160275
8693.528276,0.160665
8691.599810,0.161003
8689.671343,0.161326
8687.742876,0.161765
8685.814409,0.162277
8683.885942,0.162687
8681.957476,0.162951
8680.029009,0.163208
8678.100542,0.163555
8676.172075,0.164043
8674.243608,0.164663
8672.315142,0.165241
8670.386675,0.165676
8668.458208,0.166145
8666.529741,0.166760
8664.601274,0.167369
8662.672808,0.167879
8660.744341,0.168367
8658.815874,0.168894
8656.887407,0.169416
8654.958940,0.169942
8653.030474,0.170554
8651.102007,0.171182
8649.173540,0.171742
8647.245073,0.172320
8645.316606,0.172933
8643.388140,0.173554
8641.459673,0.174199
8639.531206,0.174815
8637.602739,0.175461
8635.674272,0.176205
8633.745806,0.176869
8631.817339,0.177397
8629.888872,0.177938
8627.960405,0.178579
8626.031938,0.179369
8624.103472,0.180217
8622.175005,0.180920
8620.246538,0.181461
8618.318071,0.181973
8616.389604,0.182541
8614.461138,0.183194
8612.532671,0.183871
8610.604204,0.184425
8608.675737,0.184760
8606.747270,0.184864
8604.818804,0.184817
8602.890337,0.184703
8600.961870,0.184469
8599.033403,0.184074
8597.104936,0.183626
8595.176470,0.183263
8593.248003,0.183041
8591.319536,0.182922
8589.391069,0.182887
8587.462602,0.182940
8585.534136,0.183020
8583.605669,0.183055
8581.677202,0.183112
8579.748735,0.183364
8577.820268,0.183780
8575.891802,0.184156
8573.963335,0.184500
8572.034868,0.184942
8570.106401,0.185477
8568.177934,0.186033
8566.249468,0.186566
8564.321001,0.187113
8562.392534,0.187738
8560.464067,0.188426
8558.535600,0.189129
8556.607134,0.189836
8554.678667,0.190614
8552.750200,0.191499
8550.821733,0.192368
8548.893266,0.193106
8546.964800,0.193788
8545.036333,0.194513
8543.107866,0.195171
8541.179399,0.195627
8539.250932,0.195982
8537.322466,0.196407
8535.393999,0.196880
8533.465532,0.197267
8531.537065,0.197620
8529.608598,0.198079
8527.680132,0.198599
8525.751665,0.199082
8523.823198,0.199520
8521.894731,0.199952
8519.966264,0.200462
8518.037798,0.201088
8516.109331,0.201804
8514.180864,0.202634
8512.252397,0.203615
8510.323930,0.204713
8508.395464,0.205836
8506.466997,0.206962
8504.538530,0.208205
8502.610063,0.209574
8500.681596,0.210897
8498.753130,0.212104
8496.824663,0.213205
8494.896196,0.214169
8492.967729,0.215046
8491.039262,0.215960
8489.110796,0.216873
8487.182329,0.217592
8485.253862,0.218083
8483.325395,0.218494
8481.396928,0.218869
8479.468462,0.219147
8477.539995,0.219322
8475.611528,0.219469
8473.683061,0.219662
8471.754594,0.219866
8469.826128,0.220021
8467.897661,0.220208
8465.969194,0.220457
8464.040727,0.220693
8462.112260,0.221006
8460.183794,0.221494
8458.255327,0.222035
8456.326860,0.222564
8454.398393,0.223236
8452.469926,0.224065
8450.541460,0.224945
8448.612993,0.225946
8446.684526,0.227064
8444.756059,0.228194
8442.827592,0.229310
8440.899126,0.230410
8438.970659,0.231529
8437.042192,0.232649
8435.113725,0.233699
8433.185258,0.234717
8431.256792,0.235767
8429.328325,0.236872
8427.399858,0.238048
8425.471391,0.239236
8423.542924,0.240355
8421.614458,0.241391
8419.685991,0.242321
8417.757524,0.243120
8415.829057,0.243785
8413.900590,0.244310
8411.972124,0.244733
8410.043657,0.245066
8408.115190,0.245223
8406.186723,0.245205
8404.258256,0.245133
8402.329790,0.245000
8400.401323,0.244729
8398.472856,0.244352
8396.544389,0.243929
8394.615922,0.243460
8392.687456,0.242922
8390.758989,0.242359
8388.830522,0.241794
8386.902055,0.241242
8384.973588,0.240791
8383.045122,0.240420
8381.116655,0.240027
8379.188188,0.239589
8377.259721,0.239126
8375.331254,0.238687
8373.402788,0.238361
8371.474321,0.238193
8369.545854,0.238080
8367.617387,0.237872
8365.688920,0.237620
8363.760454,0.237493
8361.831987,0.237503
8359.903520,0.237525
8357.975053,0.237508
8356.046586,0.237490
8354.118120,0.237499
8352.189653,0.237479
8350.261186,0.237368
8348.332719,0.237261
8346.404252,0.237221
8344.475786,0.237133
8342.547319,0.236932
8340.618852,0.236668
8338.690385,0.236363
8336.761918,0.236038
8334.833452,0.235728
8332.904985,0.235380
8330.976518,0.234906
8329.048051,0.234350
8327.119584,0.233834
8325.191118,0.233403
8323.262651,0.233015
8321.334184,0.232623
8319.405717,0.232264
8317.477250,0.232011
8315.548784,0.231905
8313.620317,0.231892
8311.691850,0.231797
8309.763383,0.231577
8307.834916,0.231437
8305.906450,0.231525
8303.977983,0.231740
8302.049516,0.231942
8300.121049,0.232128
8298.192582,0.232313
8296.264116,0.232491
8294.335649,0.232710
8292.407182,0.232999
8290.478715,0.233336
8288.550248,0.233680
8286.621782,0.233990
8284.693315,0.234222
8282.764848,0.234428
8280.836381,0.234701
8278.907914,0.234986
8276.979448,0.235176
8275.050981,0.235250
8273.122514,0.235272
8271.194047,0.235328
8269.265580,0.235413
8267.337114,0.235484
8265.408647,0.235540
8263.480180,0.235582
8261.551713,0.235600
8259.623246,0.235616
8257.694780,0.235661
8255.766313,0.235725
8253.837846,0.235715
8251.909379,0.235608
8249.980912,0.235510
8248.052446,0.235445
8246.123979,0.235404
8244.195512,0.235398
8242.267045,0.235412
8240.338578,0.235509
8238.410112,0.235675
8236.481645,0.235751
8234.553178,0.235717
8232.624711,0.235690
8230.696244,0.235725
8228.767778,0.235813
8226.839311,0.235950
8224.910844,0.236106
8222.982377,0.236271
8221.053910,0.236478
8219.125444,0.236696
8217.196977,0.236941
8215.268510,0.237290
8213.340043,0.237711
8211.411576,0.238094
8209.483110,0.238363
8207.554643,0.238560
8205.626176,0.238788
8203.697709,0.239100
8201.769242,0.239516
8199.840776,0.240001
8197.912309,0.240433
8195.983842,0.240762
8194.055375,0.241034
8192.126908,0.241284
8190.198442,0.241553
8188.269975,0.241857
8186.341508,0.242158
8184.413041,0.242426
8182.484574,0.242640
8180.556108,0.242818
8178.627641,0.243007
8176.699174,0.243183
8174.770707,0.243291
8172.842240,0.243330
8170.913774,0.243326
8168.985307,0.243292
8167.056840,0.243210
8165.128373,0.243128
8163.199906,0.243093
8161.271440,0.242993
8159.342973,0.242759
8157.414506,0.242507
8155.486039,0.242307
8153.557572,0.242130
8151.629106,0.241960
8149.700639,0.241755
8147.772172,0.241523
8145.843705,0.241372
8143.915238,0.241255
8141.986772,0.241007
8140.058305,0.240642
8138.129838,0.240282
8136.201371,0.239979
8134.272904,0.239695
8132.344438,0.239411
8130.415971,0.239190
8128.487504,0.239018
8126.559037,0.238792
8124.630570,0.238460
8122.702104,0.238115
8120.773637,0.237871
8118.845170,0.237653
8116.916703,0.237389
8114.988236,0.237150
8113.059770,0.236979
8111.131303,0.236870
8109.202836,0.236770
8107.274369,0.236630
8105.345902,0.236482
8103.417436,0.236357
8101.488969,0.236218
8099.560502,0.236068
8097.632035,0.235987
8095.703568,0.235998
8093.775102,0.236079
8091.846635,0.236217
8089.918168,0.236327
8087.989701,0.236309
8086.061234,0.236182
8084.132768,0.236058
8082.204301,0.236034
8080.275834,0.236120
8078.347367,0.236260
8076.418900,0.236405
8074.490434,0.236540
8072.561967,0.236718
8070.633500,0.236935
8068.705033,0.237102
8066.776566,0.237208
8064.848100,0.237326
8062.919633,0.237487
8060.991166,0.237637
8059.062699,0.237727
8057.134232,0.237820
8055.205766,0.237952
8053.277299,0.238115
8051.348832,0.238296
8049.420365,0.238399
8047.491898,0.238418
8045.563432,0.238480
8043.634965,0.238601
8041.706498,0.238763
8039.778031,0.238971
8037.849564,0.239166
8035.921098,0.239335
8033.992631,0.239522
8032.064164,0.239670
8030.135697,0.239763
8028.207230,0.239948
8026.278764,0.240260
8024.350297,0.240522
8022.421830,0.240610
8020.493363,0.240647
8018.564896,0.240870
8016.636430,0.241250
8014.707963,0.241525
8012.779496,0.241609
8010.851029,0.241640
8008.922562,0.241783
8006.994096,0.242044
8005.065629,0.242285
8003.137162,0.242456
8001.208695,0.242583
7999.280228,0.242663
7997.351762,0.242750
7995.423295,0.242889
7993.494828,0.243064
7991.566361,0.243278
7989.637894,0.243479
7987.709428,0.243594
7985.780961,0.243664
7983.852494,0.243747
7981.924027,0.243838
7979.995560,0.243898
7978.067094,0.243861
7976.138627,0.243726
7974.210160,0.243598
7972.281693,0.243587
7970.353226,0.243674
7968.424760,0.243763
7966.496293,0.243829
7964.567826,0.243891
7962.639359,0.243900
7960.710892,0.243813
7958.782426,0.243664
7956.853959,0.243533
7954.925492,0.243497
7952.997025,0.243536
7951.068558,0.243563
7949.140092,0.243500
7947.211625,0.243355
7945.283158,0.243242
7943.354691,0.243187
7941.426224,0.243107
7939.497758,0.243020
7937.569291,0.242891
7935.640824,0.242648
7933.712357,0.242458
7931.783890,0.242397
7929.855424,0.242304
7927.926957,0.242173
7925.998490,0.242144
7924.070023,0.242218
7922.141556,0.242220
7920.213090,0.242064
7918.284623,0.241895
7916.356156,0.241829
7914.427689,0.241821
7912.499222,0.241779
7910.570756,0.241707
7908.642289,0.241705
7906.713822,0.241796
7904.785355,0.241855
7902.856888,0.241909
7900.928422,0.242057
7898.999955,0.242122
7897.071488,0.242006
7895.143021,0.241837
7893.214554,0.241612
7891.286088,0.241412
7889.357621,0.241398
7887.429154,0.241537
7885.500687,0.241650
7883.572220,0.241518
7881.643754,0.241211
7879.715287,0.241056
7877.786820,0.241101
7875.858353,0.241103
7873.929886,0.240981
7872.001420,0.240891
7870.072953,0.240926
7868.144486,0.241090
7866.216019,0.241381
7864.287552,0.241593
7862.359086,0.241544
7860.430619,0.241410
7858.502152,0.241262
7856.573685,0.240992
7854.645218,0.240759
7852.716752,0.240837
7850.788285,0.241193
7848.859818,0.241460
7846.931351,0.241365
7845.002884,0.241052
7843.074418,0.240892
7841.145951,0.241026
7839.217484,0.241161
7837.289017,0.241115
7835.360550,0.241101
7833.432084,0.241114
7831.503617,0.240924
7829.575150,0.240595
7827.646683,0.240342
7825.718216,0.240173
7823.789750,0.240040
7821.861283,0.240001
7819.932816,0.240036
7818.004349,0.240040
7816.075882,0.240055
7814.147416,0.240253
7812.218949,0.240680
7810.290482,0.241123
7808.362015,0.241272
7806.433548,0.241143
7804.505082,0.241047
7802.576615,0.240965
7800.648148,0.240786
7798.719681,0.240668
7796.791214,0.240533
7794.862748,0.240222
7792.934281,0.239939
7791.005814,0.239865
7789.077347,0.239939
7787.148880,0.240086
7785.220414,0.240334
7783.291947,0.240635
7781.363480,0.240700
7779.435013,0.240423
7777.506546,0.240127
7775.578080,0.240098
7773.649613,0.240335
7771.721146,0.240579
7769.792679,0.240544
7767.864212,0.240364
7765.935746,0.240269
7764.007279,0.240296
7762.078812,0.240518
7760.150345,0.240685
7758.221878,0.240375
7756.293412,0.239829
7754.364945,0.239594
7752.436478,0.239732
7750.508011,0.240047
7748.579544,0.240278
7746.651078,0.240132
7744.722611,0.239825
7742.794144,0.239875
7740.865677,0.240160
7738.937210,0.240139
7737.008744,0.239684
7735.080277,0.239148
7733.151810,0.238906
7731.223343,0.239000
7729.294876,0.239089
7727.366410,0.238873
7725.437943,0.238524
7723.509476,0.238248
7721.581009,0.237879
7719.652542,0.237381
7717.724076,0.237044
7715.795609,0.237011
7713.867142,0.237032
7711.938675,0.236881
7710.010208,0.236695
7708.081742,0.236556
7706.153275,0.236345
7704.224808,0.236009
7702.296341,0.235543
7700.367874,0.235025
7698.439408,0.234508
7696.510941,0.233939
7694.582474,0.233427
7692.654007,0.233160
7690.725540,0.233156
7688.797074,0.233272
7686.868607,0.233226
7684.940140,0.232964
7683.011673,0.232808
7681.083206,0.232825
7679.154740,0.232726
7677.226273,0.232478
7675.297806,0.232241
7673.369339,0.232010
7671.440872,0.231787
7669.512406,0.231536
7667.583939,0.231169
7665.655472,0.230903
7663.727005,0.230843
7661.798538,0.230609
7659.870072,0.230138
7657.941605,0.229840
7656.013138,0.229829
7654.084671,0.229838
7652.156204,0.229658
7650.227738,0.229383
7648.299271,0.229272
7646.370804,0.229386
7644.442337,0.229588
7642.513870,0.229739
7640.585404,0.229685
7638.656937,0.229365
7636.728470,0.229019
7634.800003,0.228966
7632.871536,0.229108
7630.943070,0.229001
7629.014603,0.228565
7627.086136,0.228159
7625.157669,0.227950
7623.229202,0.227827
7621.300736,0.227730
7619.372269,0.227691
7617.443802,0.227808
7615.515335,0.228128
7613.586868,0.228418
7611.658402,0.228384
7609.729935,0.228127
7607.801468,0.228046
7605.873001,0.228279
7603.944534,0.228546
7602.016068,0.228567
7600.087601,0.228378
7598.159134,0.228186
7596.230667,0.228151
7594.302200,0.228260
7592.373734,0.228290
7590.445267,0.228062
7588.516800,0.227744
7586.588333,0.227610
7584.659866,0.227630
7582.731400,0.227652
7580.802933,0.227717
7578.874466,0.227831
7576.945999,0.227853
7575.017532,0.227837
7573.089066,0.228019
7571.160599,0.228435
7569.232132,0.228767
7567.303665,0.228755
7565.375198,0.228596
7563.446732,0.228586
7561.518265,0.228836
7559.589798,0.229218
7557.661331,0.229365
7555.732864,0.229175
7553.804398,0.228903
7551.875931,0.228779
7549.947464,0.228871
7548.018997,0.229086
7546.090530,0.229316
7544.162064,0.229613
7542.233597,0.230055
7540.305130,0.230512
7538.376663,0.230734
7536.448196,0.230712
7534.519730,0.230731
7532.591263,0.230966
7530.662796,0.231197
7528.734329,0.231253
7526.805862,0.231353
7524.877396,0.231611
7522.948929,0.231923
7521.020462,0.232320
7519.091995,0.232751
7517.163528,0.232971
7515.235062,0.233030
7513.306595,0.233152
7511.378128,0.233314
7509.449661,0.233498
7507.521194,0.233833
7505.592728,0.234330
7503.664261,0.234827
7501.735794,0.235181
7499.807327,0.235425
7497.878860,0.235608
7495.950394,0.235745
7494.021927,0.235931
7492.093460,0.236242
7490.164993,0.236653
7488.236526,0.237037
7486.308060,0.237249
7484.379593,0.237405
7482.451126,0.237693
7480.522659,0.238037
7478.594192,0.238416
7476.665726,0.238915
7474.737259,0.239439
7472.808792,0.239884
7470.880325,0.240315
7468.951858,0.240767
7467.023392,0.241195
7465.094925,0.241615
7463.166458,0.242010
7461.237991,0.242306
7459.309524,0.242565
7457.381058,0.242990
7455.452591,0.243665
7453.524124,0.244381
7451.595657,0.244929
7449.667190,0.245377
7447.738724,0.245913
7445.810257,0.246586
7443.881790,0.247200
7441.953323,0.247660
7440.024856,0.248186
7438.096390,0.248842
7436.167923,0.249425
7434.239456,0.249953
7432.310989,0.250587
7430.382522,0.251335
7428.454056,0.252165
7426.525589,0.253095
7424.597122,0.254087
7422.668655,0.254994
7420.740188,0.255780
7418.811722,0.256521
7416.883255,0.257171
7414.954788,0.257802
7413.026321,0.258597
7411.097854,0.259477
7409.169388,0.260289
7407.240921,0.261126
7405.312454,0.262098
7403.383987,0.263054
7401.455520,0.263861
7399.527054,0.264639
7397.598587,0.265493
7395.670120,0.266404
7393.741653,0.267363
7391.813186,0.268315
7389.884720,0.269240
7387.956253,0.270232
7386.027786,0.271248
7384.099319,0.272200
7382.170852,0.273113
7380.242386,0.274057
7378.313919,0.275063
7376.385452,0.276055
7374.456985,0.276969
7372.528518,0.277805
7370.600052,0.278594
7368.671585,0.279393
7366.743118,0.280259
7364.814651,0.281163
7362.886184,0.282078
7360.957718,0.283089
7359.029251,0.284184
7357.100784,0.285265
7355.172317,0.286399
7353.243850,0.287616
7351.315384,0.288778
7349.386917,0.289879
7347.458450,0.290959
7345.529983,0.291943
7343.601516,0.292815
7341.673050,0.293567
7339.744583,0.294054
7337.816116,0.294246
7335.887649,0.294220
7333.959182,0.293996
7332.030716,0.293705
7330.102249,0.293477
7328.173782,0.293313
7326.245315,0.293347
7324.316848,0.293593
7322.388382,0.293851
7320.459915,0.294118
7318.531448,0.294422
7316.602981,0.294740
7314.674514,0.295166
7312.746048,0.295742
7310.817581,0.296374
7308.889114,0.297035
7306.960647,0.297886
7305.032180,0.299065
7303.103714,0.300350
7301.175247,0.301496
7299.246780,0.302484
7297.318313,0.303269
7295.389846,0.303666
7293.461380,0.303431
7291.532913,0.302611
7289.604446,0.301565
7287.675979,0.300404
7285.747512,0.299272
7283.819046,0.298348
7281.890579,0.297543
7279.962112,0.296800
7278.033645,0.296190
7276.105178,0.295731
7274.176712,0.295413
7272.248245,0.295239
7270.319778,0.295199
7268.391311,0.295297
7266.462844,0.295539
7264.534378,0.295855
7262.605911,0.296208
7260.677444,0.296704
7258.748977,0.297364
7256.820510,0.297994
7254.892044,0.298457
7252.963577,0.298906
7251.035110,0.299524
7249.106643,0.300170
7247.178176,0.300695
7245.249710,0.301096
7243.321243,0.301374
7241.392776,0.301557
7239.464309,0.301803
7237.535842,0.302122
7235.607376,0.302410
7233.678909,0.302611
7231.750442,0.302728
7229.821975,0.302905
7227.893508,0.303141
7225.965042,0.303273
7224.036575,0.303325
7222.108108,0.303411
7220.179641,0.303567
7218.251174,0.303833
7216.322708,0.304206
7214.394241,0.304621
7212.465774,0.305027
7210.537307,0.305404
7208.608840,0.305757
7206.680374,0.306086
7204.751907,0.306447
7202.823440,0.306918
7200.894973,0.307409
7198.966506,0.307767
7197.038040,0.307975
7195.109573,0.308121
7193.181106,0.308271
7191.252639,0.308418
7189.324172,0.308546
7187.395706,0.308679
7185.467239,0.308816
7183.538772,0.308889
7181.610305,0.308946
7179.681838,0.309192
7177.753372,0.309549
7175.824905,0.309843
7173.896438,0.310116
7171.967971,0.310383
7170.039504,0.310578
7168.111038,0.310709
7166.182571,0.310837
7164.254104,0.310976
7162.325637,0.311069
7160.397170,0.311085
7158.468704,0.311129
7156.540237,0.311239
7154.611770,0.311331
7152.683303,0.311377
7150.754836,0.311365
7148.826370,0.311316
7146.897903,0.311283
7144.969436,0.311258
7143.040969,0.311206
7141.112502,0.311134
7139.184036,0.311134
7137.255569,0.311295
7135.327102,0.311477
7133.398635,0.311542
7131.470168,0.311556
7129.541702,0.311585
7127.613235,0.311665
7125.684768,0.311846
7123.756301,0.312109
7121.827834,0.312393
7119.899368,0.312636
7117.970901,0.312836
7116.042434,0.313097
7114.113967,0.313422
7112.185500,0.313708
7110.257034,0.313902
7108.328567,0.314019
7106.400100,0.314134
7104.471633,0.314318
7102.543166,0.314581
7100.614700,0.314878
7098.686233,0.315179
7096.757766,0.315526
7094.829299,0.315977
7092.900832,0.316525
7090.972366,0.317124
7089.043899,0.317786
7087.115432,0.318536
7085.186965,0.319381
7083.258498,0.320272
7081.330032,0.321147
7079.401565,0.322015
7077.473098,0.322888
7075.544631,0.323757
7073.616164,0.324637
7071.687698,0.325567
7069.759231,0.326547
7067.830764,0.327522
7065.902297,0.328477
7063.973830,0.329417
7062.045364,0.330368
7060.116897,0.331362
7058.188430,0.332391
7056.259963,0.333469
7054.331496,0.334612
7052.403030,0.335777
7050.474563,0.336916
7048.546096,0.338071
7046.617629,0.339295
7044.689162,0.340521
7042.760696,0.341668
7040.832229,0.342782
7038.903762,0.343925
7036.975295,0.345121
7035.046828,0.346362
7033.118362,0.347653
7031.189895,0.349021
7029.261428,0.350382
7027.332961,0.351647
7025.404494,0.352911
7023.476028,0.354286
7021.547561,0.355746
7019.619094,0.357223
7017.690627,0.358695
7015.762160,0.360201
7013.833694,0.361782
7011.905227,0.363424
7009.976760,0.365105
7008.048293,0.366842
7006.119826,0.368644
7004.191360,0.370483
7002.262893,0.372372
7000.334426,0.374322
6998.405959,0.376246
6996.477492,0.378093
6994.549026,0.379970
6992.620559,0.381992
6990.692092,0.384093
6988.763625,0.386107
6986.835158,0.388052
6984.906692,0.390030
6982.978225,0.392041
6981.049758,0.394101
6979.121291,0.396243
6977.192824,0.398403
6975.264358,0.400488
6973.335891,0.402518
6971.407424,0.404616
6969.478957,0.406836
6967.550490,0.409095
6965.622024,0.411325
6963.693557,0.413560
6961.765090,0.415845
6959.836623,0.418165
6957.908156,0.420432
6955.979690,0.422673
6954.051223,0.425028
6952.122756,0.427457
6950.194289,0.429825
6948.265822,0.432129
6946.337356,0.434500
6944.408889,0.437001
6942.480422,0.439525
6940.551955,0.441982
6938.623488,0.444416
6936.695022,0.446947
6934.766555,0.449543
6932.838088,0.452090
6930.909621,0.454641
6928.981154,0.457218
6927.052688,0.459747
6925.124221,0.462277
6923.195754,0.464919
6921.267287,0.467581
6919.338820,0.470082
6917.410354,0.472587
6915.481887,0.475344
6913.553420,0.478193
6911.624953,0.480968
6909.696486,0.483691
6907.768020,0.486355
6905.839553,0.489016
6903.911086,0.491727
6901.982619,0.494446
6900.054152,0.497153
6898.125686,0.499843
6896.197219,0.502491
6894.268752,0.505116
6892.340285,0.507791
6890.411818,0.510529
6888.483352,0.513223
6886.554885,0.515810
6884.626418,0.518391
6882.697951,0.521075
6880.769484,0.523786
6878.841018,0.526445
6876.912551,0.529088
6874.984084,0.531666
6873.055617,0.534201
6871.127150,0.536897
6869.198684,0.539728
6867.270217,0.542479
6865.341750,0.545130
6863.413283,0.547764
6861.484816,0.550412
6859.556350,0.553034
6857.627883,0.555560
6855.699416,0.558019
6853.770949,0.560520
6851.842482,0.563091
6849.914016,0.565657
6847.985549,0.568165
6846.057082,0.570650
6844.128615,0.573225
6842.200148,0.575893
6840.271682,0.578489
6838.343215,0.580927
6836.414748,0.583297
6834.486281,0.585704
6832.557814,0.588193
6830.629348,0.590689
6828.700881,0.593092
6826.772414,0.595478
6824.843947,0.597952
6822.915480,0.600434
6820.987014,0.602833
6819.058547,0.605183
6817.130080,0.607520
6815.201613,0.609860
6813.273146,0.612223
6811.344680,0.614616
6809.416213,0.617038
6807.487746,0.619413
6805.559279,0.621712
6803.630812,0.623987
6801.702346,0.626211
6799.773879,0.628442
6797.845412,0.630755
6795.916945,0.633056
6793.988478,0.635289
6792.060012,0.637499
6790.131545,0.639751
6788.203078,0.642058
6786.274611,0.644332
6784.346144,0.646504
6782.417678,0.648612
6780.489211,0.650772
6778.560744,0.652968
6776.632277,0.655102
6774.703810,0.657217
6772.775344,0.659358
6770.846877,0.661460
6768.918410,0.663503
6766.989943,0.665574
6765.061476,0.667723
6763.133010,0.669812
6761.204543,0.671706
6759.276076,0.673517
6757.347609,0.675349
6755.419142,0.677140
6753.490676,0.678885
6751.562209,0.680669
6749.633742,0.682463
6747.705275,0.684161
6745.776808,0.685780
6743.848342,0.687359
6741.919875,0.688867
6739.991408,0.690329
6738.062941,0.691826
6736.134474,0.693399
6734.206008,0.694924
6732.277541,0.696258
6730.349074,0.697448
6728.420607,0.698622
6726.492140,0.699839
6724.563674,0.701060
6722.635207,0.702193
6720.706740,0.703210
6718.778273,0.704198
6716.849806,0.705207
6714.921340,0.706165
6712.992873,0.707016
6711.064406,0.707772
6709.135939,0.708473
6707.207472,0.709149
6705.279006,0.709829
6703.350539,0.710528
6701.422072,0.711206
6699.493605,0.711789
6697.565138,0.712257
6695.636672,0.712654
6693.708205,0.712994
6691.779738,0.713301
6689.851271,0.713580
6687.922804,0.713758
6685.994338,0.713808
6684.065871,0.713827
6682.137404,0.713972
6680.208937,0.714208
6678.280470,0.714286
6676.352004,0.714120
6674.423537,0.713903
6672.495070,0.713818
6670.566603,0.713768
6668.638136,0.713582
6666.709670,0.713297
6664.781203,0.713011
6662.852736,0.712768
6660.924269,0.712566
6658.995802,0.712358
6657.067336,0.712157
6655.138869,0.711941
6653.210402,0.711601
6651.281935,0.711205
6649.353468,0.710947
6647.425002,0.710825
6645.496535,0.710704
6643.568068,0.710557
6641.639601,0.710400
6639.711134,0.710164
6637.782668,0.709863
6635.854201,0.709570
6633.925734,0.709279
6631.997267,0.709009
6630.068800,0.708834
6628.140334,0.708764
6626.211867,0.708698
6624.283400,0.708567
6622.354933,0.708413
6620.426466,0.708227
6618.498000,0.708035
6616.569533,0.707919
6614.641066,0.707833
6612.712599,0.707739
6610.784132,0.707667
6608.855666,0.707596
6606.927199,0.707552
6604.998732,0.707544
6603.070265,0.707515
6601.141798,0.707416
6599.213332,0.707286
6597.284865,0.707235
6595.356398,0.707248
6593.427931,0.707220
6591.499464,0.707104
6589.570998,0.706914
6587.642531,0.706786
6585.714064,0.706800
6583.785597,0.706822
6581.857130,0.706730
6579.928664,0.706556
6578.000197,0.706394
6576.071730,0.706280
6574.143263,0.706183
6572.214796,0.706094
6570.286330,0.706053
6568.357863,0.706040
6566.429396,0.705955
6564.500929,0.705756
6562.572462,0.705553
6560.643996,0.705434
6558.715529,0.705295
6556.787062,0.705060
6554.858595,0.704817
6552.930128,0.704652
6551.001662,0.704576
6549.073195,0.704536
6547.144728,0.704460
6545.216261,0.704274
6543.287794,0.703954
6541.359328,0.703594
6539.430861,0.703288
6537.502394,0.703031
6535.573927,0.702788
6533.645460,0.702524
6531.716994,0.702211
6529.788527,0.701933
6527.860060,0.701760
6525.931593,0.701580
6524.003126,0.701318
6522.074660,0.701028
6520.146193,0.700777
6518.217726,0.700574
6516.289259,0.700321
6514.360792,0.699994
6512.432326,0.699723
6510.503859,0.699503
6508.575392,0.699179
6506.646925,0.698816
6504.718458,0.698575
6502.789992,0.698437
6500.861525,0.698319
6498.933058,0.698109
6497.004591,0.697763
6495.076124,0.697433
6493.147658,0.697209
6491.219191,0.696979
6489.290724,0.696657
6487.362257,0.696283
6485.433790,0.695937
6483.505324,0.695634
6481.576857,0.695327
6479.648390,0.695003
6477.719923,0.694688
6475.791456,0.694372
6473.862990,0.694054
6471.934523,0.693755
6470.006056,0.693507
6468.077589,0.693307
6466.149122,0.693105
6464.220656,0.692899
6462.292189,0.692652
6460.363722,0.692334
6458.435255,0.692047
6456.506788,0.691854
6454.578322,0.691713
6452.649855,0.691550
6450.721388,0.691352
6448.792921,0.691172
6446.864454,0.691054
6444.935988,0.691003
6443.007521,0.690959
6441.079054,0.690861
6439.150587,0.690745
6437.222120,0.690671
6435.293654,0.690626
6433.365187,0.690572
6431.436720,0.690515
6429.508253,0.690498
6427.579786,0.690596
6425.651320,0.690854
6423.722853,0.691193
6421.794386,0.691417
6419.865919,0.691416
6417.937452,0.691380
6416.008986,0.691507
6414.080519,0.691695
6412.152052,0.691816
6410.223585,0.691900
6408.295118,0.692009
6406.366652,0.692168
6404.438185,0.692314
6402.509718,0.692409
6400.581251,0.692572
6398.652784,0.692881
6396.724318,0.693268
6394.795851,0.693677
6392.867384,0.694071
6390.938917,0.694436
6389.010450,0.694859
6387.081984,0.695372
6385.153517,0.695861
6383.225050,0.696262
6381.296583,0.696622
6379.368116,0.696932
6377.439650,0.697114
6375.511183,0.697156
6373.582716,0.697118
6371.654249,0.697052
6369.725782,0.697002
6367.797316,0.696991
6365.868849,0.697001
6363.940382,0.697053
6362.011915,0.697227
6360.083448,0.697564
6358.154982,0.697953
6356.226515,0.698284
6354.298048,0.698654
6352.369581,0.699140
6350.441114,0.699609
6348.512648,0.699911
6346.584181,0.700094
6344.655714,0.700290
6342.727247,0.700488
6340.798780,0.700618
6338.870314,0.700768
6336.941847,0.701033
6335.013380,0.701307
6333.084913,0.701469
6331.156446,0.701595
6329.227980,0.701782
6327.299513,0.701957
6325.371046,0.702028
6323.442579,0.701998
6321.514112,0.701869
6319.585646,0.701664
6317.657179,0.701414
6315.728712,0.701064
6313.800245,0.700579
6311.871778,0.700027
6309.943312,0.699487
6308.014845,0.698936
6306.086378,0.698310
6304.157911,0.697609
6302.229444,0.696880
6300.300978,0.696134
6298.372511,0.695348
6296.444044,0.694531
6294.515577,0.693705
6292.587110,0.692850
6290.658644,0.691971
6288.730177,0.691118
6286.801710,0.690293
6284.873243,0.689429
6282.944776,0.688513
6281.016310,0.687588
6279.087843,0.686644
6277.159376,0.685667
6275.230909,0.684672
6273.302442,0.683681
6271.373976,0.682724
6269.445509,0.681784
6267.517042,0.680846
6265.588575,0.679915
6263.660108,0.678965
6261.731642,0.677993
6259.803175,0.677021
6257.874708,0.676044
6255.946241,0.675039
6254.017774,0.674016
6252.089308,0.673033
6250.160841,0.672080
6248.232374,0.671065
6246.303907,0.669974
6244.375440,0.668901
6242.446974,0.667868
6240.518507,0.666823
6238.590040,0.665786
6236.661573,0.664785
6234.733106,0.663829
6232.804640,0.662857
6230.876173,0.661773
6228.947706,0.660630
6227.019239,0.659555
6225.090772,0.658588
6223.162306,0.657666
6221.233839,0.656716
6219.305372,0.655736
6217.376905,0.654736
6215.448438,0.653759
6213.519972,0.652832
6211.591505,0.651880
6209.663038,0.650897
6207.734571,0.649981
6205.806104,0.649137
6203.877638,0.648265
6201.949171,0.647317
6200.020704,0.646330
6198.092237,0.645371
6196.163770,0.644442
6194.235304,0.643500
6192.306837,0.642582
6190.378370,0.641743
6188.449903,0.640947
6186.521436,0.640140
6184.592970,0.639300
6182.664503,0.638389
6180.736036,0.637404
6178.807569,0.636404
6176.879102,0.635437
6174.950636,0.634507
6173.022169,0.633595
6171.093702,0.632704
6169.165235,0.631807
6167.236768,0.630821
6165.308302,0.629757
6163.379835,0.628735
6161.451368,0.627795
6159.522901,0.626869
6157.594434,0.625912
6155.665968,0.624937
6153.737501,0.623982
6151.809034,0.623051
6149.880567,0.622072
6147.952100,0.621025
6146.023634,0.620007
6144.095167,0.619020
6142.166700,0.617966
6140.238233,0.616858
6138.309766,0.615779
6136.381300,0.614749
6134.452833,0.613740
6132.524366,0.612715
6130.595899,0.611654
6128.667432,0.610571
6126.738966,0.609489
6124.810499,0.608408
6122.882032,0.607326
6120.953565,0.606263
6119.025098,0.605239
6117.096632,0.604240
6115.168165,0.603281
6113.239698,0.602373
6111.311231,0.601460
6109.382764,0.600482
6107.454298,0.599467
6105.525831,0.598499
6103.597364,0.597589
6101.668897,0.596698
6099.740430,0.595835
6097.811964,0.594990
6095.883497,0.594152
6093.955030,0.593345
6092.026563,0.592531
6090.098096,0.591690
6088.169630,0.590871
6086.241163,0.590094
6084.312696,0.589356
6082.384229,0.588683
6080.455762,0.588032
6078.527296,0.587280
6076.598829,0.586441
6074.670362,0.585666
6072.741895,0.584998
6070.813428,0.584336
6068.884962,0.583635
6066.956495,0.582941
6065.028028,0.582289
6063.099561,0.581639
6061.171094,0.580936
6059.242628,0.580198
6057.314161,0.579501
6055.385694,0.578871
6053.457227,0.578309
6051.528760,0.577797
6049.600294,0.577275
6047.671827,0.576705
6045.743360,0.576092
6043.814893,0.575456
6041.886426,0.574839
6039.957960,0.574274
6038.029493,0.573720
6036.101026,0.573125
6034.172559,0.572531
6032.244092,0.571962
6030.315626,0.571352
6028.387159,0.570706
6026.458692,0.570090
6024.530225,0.569472
6022.601758,0.568791
6020.673292,0.568058
6018.744825,0.567293
6016.816358,0.566549
6014.887891,0.565888
6012.959424,0.565252
6011.030958,0.564553
6009.102491,0.563807
6007.174024,0.563050
6005.245557,0.562292
6003.317090,0.561534
6001.388624,0.560777
5999.460157,0.560041
5997.531690,0.559322
5995.603223,0.558584
5993.674756,0.557812
5991.746290,0.557021
5989.817823,0.556245
5987.889356,0.555477
5985.960889,0.554690
5984.032422,0.553933
5982.103956,0.553254
5980.175489,0.552585
5978.247022,0.551872
5976.318555,0.551148
5974.390088,0.550475
5972.461622,0.549877
5970.533155,0.549356
5968.604688,0.548941
5966.676221,0.548688
5964.747754,0.548688
5962.819288,0.549049
5960.890821,0.549840
5958.962354,0.551046
5957.033887,0.552392
5955.105420,0.553202
5953.176954,0.552743
5951.248487,0.550847
5949.320020,0.548076
5947.391553,0.545228
5945.463086,0.542775
5943.534620,0.540793
5941.606153,0.539208
5939.677686,0.537943
5937.749219,0.536942
5935.820752,0.536155
5933.892286,0.535553
5931.963819,0.535139
5930.035352,0.534907
5928.106885,0.534790
5926.178418,0.534758
5924.249952,0.534980
5922.321485,0.535802
5920.393018,0.537617
5918.464551,0.540956
5916.536084,0.546825
5914.607618,0.556798
5912.679151,0.571769
5910.750684,0.588260
5908.822217,0.596860
5906.893750,0.590659
5904.965284,0.574307
5903.036817,0.557693
5901.108350,0.545798
5899.179883,0.538409
5897.251416,0.533922
5895.322950,0.531147
5893.394483,0.529399
5891.466016,0.528200
5889.537549,0.527208
5887.609082,0.526296
5885.680616,0.525554
5883.752149,0.525205
5881.823682,0.525485
5879.895215,0.526491
5877.966748,0.527855
5876.038282,0.528801
5874.109815,0.528897
5872.181348,0.528536
5870.252881,0.528462
5868.324414,0.529016
5866.395948,0.529919
5864.467481,0.530598
5862.539014,0.530599
5860.610547,0.529701
5858.682080,0.527958
5856.753614,0.525720
5854.825147,0.523430
5852.896680,0.521359
5850.968213,0.519614
5849.039746,0.518347
5847.111280,0.517779
5845.182813,0.518106
5843.254346,0.519425
5841.325879,0.521404
5839.397412,0.523027
5837.468946,0.523170
5835.540479,0.521615
5833.612012,0.519262
5831.683545,0.517247
5829.755078,0.516111
5827.826612,0.515820
5825.898145,0.516189
5823.969678,0.517091
5822.041211,0.518441
5820.112744,0.520276
5818.184278,0.522901
5816.255811,0.526747
5814.327344,0.532142
5812.398877,0.539078
5810.470410,0.546713
5808.541944,0.553047
5806.613477,0.555737
5804.685010,0.553781
5802.756543,0.548282
5800.828076,0.541477
5798.899610,0.535259
5796.971143,0.530482
5795.042676,0.527238
5793.114209,0.525309
5791.185742,0.524308
5789.257276,0.523782
5787.328809,0.523338
5785.400342,0.522767
5783.471875,0.522097
5781.543408,0.521409
5779.614942,0.520772
5777.686475,0.520388
5775.758008,0.520516
5773.829541,0.521242
5771.901074,0.522476
5769.972608,0.524073
5768.044141,0.525852
5766.115674,0.527630
5764.187207,0.529221
5762.258740,0.530459
5760.330274,0.531213
5758.401807,0.531333
5756.473340,0.530773
5754.544873,0.529702
5752.616406,0.528324
5750.687940,0.526730
5748.759473,0.524947
5746.831006,0.523053
5744.902539,0.521182
5742.974072,0.519467
5741.045606,0.518029
5739.117139,0.516941
5737.188672,0.516207
5735.260205,0.515832
5733.331738,0.515790
5731.403272,0.515962
5729.474805,0.516171
5727.546338,0.516289
5725.617871,0.516218
5723.689404,0.515843
5721.760938,0.515096
5719.832471,0.514014
5717.904004,0.512689
5715.975537,0.511209
5714.047070,0.509708
5712.118604,0.508362
5710.190137,0.507317
5708.261670,0.506699
5706.333203,0.506558
5704.404736,0.506870
5702.476270,0.507622
5700.547803,0.508804
5698.619336,0.510378
5696.690869,0.512248
5694.762402,0.514182
5692.833936,0.515849
5690.905469,0.516845
5688.977002,0.516793
5687.048535,0.515590
5685.120068,0.513475
5683.191602,0.510875
5681.263135,0.508235
5679.334668,0.505906
5677.406201,0.504121
5675.477734,0.502950
5673.549268,0.502328
5671.620801,0.502186
5669.692334,0.502477
5667.763867,0.503157
5665.835400,0.504225
5663.906934,0.505695
5661.978467,0.507517
5660.050000,0.509633
5658.121533,0.511991
5656.193066,0.514404
5654.264600,0.516657
5652.336133,0.518643
5650.407666,0.520239
5648.479199,0.521279
5646.550732,0.521663
5644.622266,0.521439
5642.693799,0.520777
5640.765332,0.519872
5638.836865,0.518944
5636.908398,0.518153
5634.979932,0.517534
5633.051465,0.517070
5631.122998,0.516698
5629.194531,0.516280
5627.266064,0.515706
5625.337598,0.514934
5623.409131,0.513947
5621.480664,0.512815
5619.552197,0.511634
5617.623730,0.510438
5615.695264,0.509247
5613.766797,0.508127
5611.838330,0.507114
5609.909863,0.506146
5607.981396,0.505200
5606.052930,0.504298
5604.124463,0.503420
5602.195996,0.502587
5600.267529,0.501850
5598.339062,0.501138
5596.410596,0.500308
5594.482129,0.499352
5592.553662,0.498377
5590.625195,0.497476
5588.696728,0.496674
5586.768262,0.495944
5584.839795,0.495310
5582.911328,0.494810
5580.982861,0.494392
5579.054394,0.493957
5577.125928,0.493437
5575.197461,0.492768
5573.268994,0.491860
5571.340527,0.490661
5569.412060,0.489207
5567.483594,0.487557
5565.555127,0.485716
5563.626660,0.483737
5561.698193,0.481788
5559.769726,0.480009
5557.841260,0.478444
5555.912793,0.477153
5553.984326,0.476232
5552.055859,0.475731
5550.127392,0.475572
5548.198926,0.475583
5546.270459,0.475617
5544.341992,0.475599
5542.413525,0.475498
5540.485058,0.475266
5538.556592,0.474897
5536.628125,0.474535
5534.699658,0.474299
5532.771191,0.474106
5530.842724,0.473857
5528.914258,0.473529
5526.985791,0.473145
5525.057324,0.472735
5523.128857,0.472349
5521.200390,0.472093
5519.271924,0.471978
5517.343457,0.471934
5515.414990,0.472020
5513.486523,0.472234
5511.558056,0.472436
5509.629590,0.472620
5507.701123,0.472939
5505.772656,0.473457
5503.844189,0.473983
5501.915722,0.474356
5499.987256,0.474634
5498.058789,0.474969
5496.130322,0.475276
5494.201855,0.475399
5492.273388,0.475509
5490.344922,0.475626
5488.416455,0.475395
5486.487988,0.474718
5484.559521,0.473673
5482.631054,0.472310
5480.702588,0.470750
5478.774121,0.469126
5476.845654,0.467428
5474.917187,0.465765
5472.988720,0.464489
5471.060254,0.463347
5469.131787,0.461960
5467.203320,0.460514
5465.274853,0.459246
5463.346386,0.458065
5461.417920,0.456975
5459.489453,0.456163
5457.560986,0.455572
5455.632519,0.455060
5453.704052,0.454643
5451.775586,0.454235
5449.847119,0.453812
5447.918652,0.453434
5445.990185,0.453036
5444.061718,0.452570
5442.133252,0.452054
5440.204785,0.451561
5438.276318,0.451114
5436.347851,0.450550
5434.419384,0.449925
5432.490918,0.449503
5430.562451,0.449117
5428.633984,0.448735
5426.705517,0.448625
5424.777050,0.448574
5422.848584,0.448342
5420.920117,0.447932
5418.991650,0.447374
5417.063183,0.446654
5415.134716,0.445774
5413.206250,0.444954
5411.277783,0.444498
5409.349316,0.444361
5407.420849,0.444286
5405.492382,0.444073
5403.563916,0.443758
5401.635449,0.443502
5399.706982,0.443238
5397.778515,0.442853
5395.850048,0.442492
5393.921582,0.442434
5391.993115,0.442705
5390.064648,0.442944
5388.136181,0.442924
5386.207714,0.442778
5384.279248,0.442795
5382.350781,0.442871
5380.422314,0.442664
5378.493847,0.442126
5376.565380,0.441524
5374.636914,0.441291
5372.708447,0.441349
5370.779980,0.441274
5368.851513,0.440939
5366.923046,0.440398
5364.994580,0.439723
5363.066113,0.439084
5361.137646,0.438672
5359.209179,0.438387
5357.280712,0.438033
5355.352246,0.437606
5353.423779,0.437453
5351.495312,0.437773
5349.566845,0.437968
5347.638378,0.437750
5345.709912,0.437235
5343.781445,0.436674
5341.852978,0.436280
5339.924511,0.435806
5337.996044,0.435267
5336.067578,0.435131
5334.139111,0.435195
5332.210644,0.435101
5330.282177,0.434927
5328.353710,0.434791
5326.425244,0.434833
5324.496777,0.435074
5322.568310,0.435297
5320.639843,0.435449
5318.711376,0.435568
5316.782910,0.435699
5314.854443,0.435943
5312.925976,0.436238
5310.997509,0.436411
5309.069042,0.436471
5307.140576,0.436695
5305.212109,0.437197
5303.283642,0.437693
5301.355175,0.438134
5299.426708,0.438743
5297.498242,0.439559
5295.569775,0.440376
5293.641308,0.441033
5291.712841,0.441625
5289.784374,0.442454
5287.855908,0.443417
5285.927441,0.444212
5283.998974,0.445007
5282.070507,0.445907
5280.142040,0.446880
5278.213574,0.447970
5276.285107,0.449067
5274.356640,0.450074
5272.428173,0.450958
5270.499706,0.451768
5268.571240,0.452608
5266.642773,0.453419
5264.714306,0.454285
5262.785839,0.455601
5260.857372,0.457262
5258.928906,0.458695
5257.000439,0.459830
5255.071972,0.461228
5253.143505,0.463201
5251.215038,0.464993
5249.286572,0.466460
5247.358105,0.468114
5245.429638,0.469912
5243.501171,0.471620
5241.572704,0.473043
5239.644238,0.474081
5237.715771,0.474994
5235.787304,0.475919
5233.858837,0.476815
5231.930370,0.477888
5230.001904,0.479246
5228.073437,0.480530
5226.144970,0.481832
5224.216503,0.483687
5222.288036,0.485731
5220.359570,0.487523
5218.431103,0.489471
5216.502636,0.491839
5214.574169,0.494292
5212.645702,0.496508
5210.717236,0.498384
5208.788769,0.500081
5206.860302,0.502181
5204.931835,0.504717
5203.003368,0.506847
5201.074902,0.508430
5199.146435,0.509858
5197.217968,0.511633
5195.289501,0.513913
5193.361034,0.516101
5191.432568,0.518018
5189.504101,0.520040
5187.575634,0.522212
5185.647167,0.524519
5183.718700,0.527096
5181.790234,0.529709
5179.861767,0.532217
5177.933300,0.534766
5176.004833,0.537345
5174.076366,0.539863
5172.147900,0.542387
5170.219433,0.545127
5168.290966,0.548038
5166.362499,0.550859
5164.434032,0.553737
5162.505566,0.556888
5160.577099,0.560084
5158.648632,0.563209
5156.720165,0.566485
5154.791698,0.569974
5152.863232,0.573408
5150.934765,0.576700
5149.006298,0.579948
5147.077831,0.583085
5145.149364,0.586046
5143.220898,0.588909
5141.292431,0.591840
5139.363964,0.594839
5137.435497,0.597781
5135.507030,0.600728
5133.578564,0.603778
5131.650097,0.606940
5129.721630,0.610181
5127.793163,0.613467
5125.864696,0.616766
5123.936230,0.619991
5122.007763,0.623140
5120.079296,0.626339
5118.150829,0.629674
5116.222362,0.633049
5114.293896,0.636378
5112.365429,0.639716
5110.436962,0.643077
5108.508495,0.646421
5106.580028,0.649745
5104.651562,0.653080
5102.723095,0.656386
5100.794628,0.659601
5098.866161,0.662764
5096.937694,0.665917
5095.009228,0.669048
5093.080761,0.672139
5091.152294,0.675187
5089.223827,0.678177
5087.295360,0.681119
5085.366894,0.684019
5083.438427,0.686876
5081.509960,0.689742
5079.581493,0.692570
5077.653026,0.695260
5075.724560,0.697831
5073.796093,0.700319
5071.867626,0.702710
5069.939159,0.704977
5068.010692,0.707072
5066.082226,0.708971
5064.153759,0.710725
5062.225292,0.712379
5060.296825,0.713957
5058.368358,0.715455
5056.439892,0.716810
5054.511425,0.718034
5052.582958,0.719184
5050.654491,0.720255
5048.726024,0.721182
5046.797558,0.721881
5044.869091,0.722380
5042.940624,0.722796
5041.012157,0.723177
5039.083690,0.723496
5037.155224,0.723746
5035.226757,0.723914
5033.298290,0.723983
5031.369823,0.723948
5029.441356,0.723837
5027.512890,0.723717
5025.584423,0.723589
5023.655956,0.723395
5021.727489,0.723122
5019.799022,0.722852
5017.870556,0.722656
5015.942089,0.722479
5014.013622,0.722316
5012.085155,0.722256
5010.156688,0.722286
5008.228222,0.722322
5006.299755,0.722360
5004.371288,0.722458
5002.442821,0.722664
5000.514354,0.723008
4998.585888,0.723445
4996.657421,0.723941
4994.728954,0.724525
4992.800487,0.725203
4990.872020,0.725970
4988.943554,0.726844
4987.015087,0.727822
4985.086620,0.728893
4983.158153,0.730054
4981.229686,0.731282
4979.301220,0.732551
4977.372753,0.733899
4975.444286,0.735333
4973.515819,0.736821
4971.587352,0.738345
4969.658886,0.739856
4967.730419,0.741340
4965.801952,0.742881
4963.873485,0.744481
4961.945018,0.746087
4960.016552,0.747731
4958.088085,0.749421
4956.159618,0.751171
4954.231151,0.753028
4952.302684,0.754953
4950.374218,0.756878
4948.445751,0.758770
4946.517284,0.760636
4944.588817,0.762532
4942.660350,0.764530
4940.731884,0.766628
4938.803417,0.768779
4936.874950,0.771031
4934.946483,0.773432
4933.018016,0.775921
4931.089550,0.778463
4929.161083,0.781093
4927.232616,0.783785
4925.304149,0.786484
4923.375682,0.789214
4921.447216,0.791958
4919.518749,0.794637
4917.590282,0.797270
4915.661815,0.799937
4913.733348,0.802639
4911.804882,0.805288
4909.876415,0.807845
4907.947948,0.810378
4906.019481,0.812925
4904.091014,0.815459
4902.162548,0.817958
4900.234081,0.820384
4898.305614,0.822700
4896.377147,0.824963
4894.448680,0.827209
4892.520214,0.829374
4890.591747,0.831459
4888.663280,0.833555
4886.734813,0.835653
4884.806346,0.837684
4882.877880,0.839658
4880.949413,0.841641
4879.020946,0.843695
4877.092479,0.845807
4875.164012,0.847915
4873.235546,0.850049
4871.307079,0.852291
4869.378612,0.854656
4867.450145,0.857145
4865.521678,0.859857
4863.593212,0.862886
4861.664745,0.866201
4859.736278,0.869732
4857.807811,0.873445
4855.879344,0.877323
4853.950878,0.881325
4852.022411,0.885448
4850.093944,0.889709
4848.165477,0.893922
4846.237010,0.897872
4844.308544,0.901548
4842.380077,0.904985
4840.451610,0.908133
4838.523143,0.910942
4836.594676,0.913453
4834.666210,0.915657
4832.737743,0.917441
4830.809276,0.918811
4828.880809,0.919866
4826.952342,0.920572
4825.023876,0.920869
4823.095409,0.920815
4821.166942,0.920435
4819.238475,0.919683
4817.310008,0.918592
4815.381542,0.917233
4813.453075,0.915692
4811.524608,0.914072
4809.596141,0.912401
4807.667674,0.910752
4805.739208,0.909247
4803.810741,0.907809
4801.882274,0.906384
4799.953807,0.905150
4798.025340,0.904168
4796.096874,0.903343
4794.168407,0.902714
4792.239940,0.902358
4790.311473,0.902181
4788.383006,0.902055
4786.454540,0.901975
4784.526073,0.901979
4782.597606,0.902035
4780.669139,0.902065
4778.740672,0.902054
4776.812206,0.901945
4774.883739,0.901676
4772.955272,0.901332
4771.026805,0.900933
4769.098338,0.900421
4767.169872,0.899844
4765.241405,0.899255
4763.312938,0.898606
4761.384471,0.897872
4759.456004,0.897132
4757.527538,0.896449
4755.599071,0.895772
4753.670604,0.895049
4751.742137,0.894364
4749.813670,0.893792
4747.885204,0.893291
4745.956737,0.892774
4744.028270,0.892167
4742.099803,0.891497
4740.171336,0.890884
4738.242870,0.890396
4736.314403,0.889954
4734.385936,0.889467
4732.457469,0.888968
4730.529002,0.888473
4728.600536,0.887936
4726.672069,0.887340
4724.743602,0.886720
4722.815135,0.886115
4720.886668,0.885474
4718.958202,0.884730
4717.029735,0.883906
4715.101268,0.883043
4713.172801,0.882144
4711.244334,0.881217
4709.315868,0.880295
4707.387401,0.879379
4705.458934,0.878416
4703.530467,0.877314
4701.602000,0.876072
4699.673534,0.874768
4697.745067,0.873425
4695.816600,0.872028
4693.888133,0.870513
4691.959666,0.868765
4690.031200,0.866733
4688.102733,0.864462
4686.174266,0.861996
4684.245799,0.859384
4682.317332,0.856683
4680.388866,0.853877
4678.460399,0.850914
4676.531932,0.847798
4674.603465,0.844596
4672.674998,0.841362
4670.746532,0.838099
4668.818065,0.834755
4666.889598,0.831293
4664.961131,0.827792
4663.032664,0.824344
4661.104198,0.820930
4659.175731,0.817510
4657.247264,0.814131
4655.318797,0.810886
4653.390330,0.807781
4651.461864,0.804731
4649.533397,0.801664
4647.604930,0.798608
4645.676463,0.795641
4643.747996,0.792765
4641.819530,0.789993
4639.891063,0.787416
4637.962596,0.784995
4636.034129,0.782586
4634.105662,0.780175
4632.177196,0.777840
4630.248729,0.775635
4628.320262,0.773546
4626.391795,0.771463
4624.463328,0.769347
4622.534862,0.767275
4620.606395,0.765300
4618.677928,0.763428
4616.749461,0.761606
4614.820994,0.759773
4612.892528,0.757930
4610.964061,0.756080
4609.035594,0.754230
4607.107127,0.752412
4605.178660,0.750637
4603.250194,0.748902
4601.321727,0.747217
4599.393260,0.745565
4597.464793,0.743867
4595.536326,0.742101
4593.607860,0.740384
4591.679393,0.738766
4589.750926,0.737198
4587.822459,0.735679
4585.893992,0.734222
4583.965526,0.732790
4582.037059,0.731378
4580.108592,0.730034
4578.180125,0.728769
4576.251658,0.727548
4574.323192,0.726368
4572.394725,0.725225
4570.466258,0.724073
4568.537791,0.722930
4566.609324,0.721845
4564.680858,0.720821
4562.752391,0.719848
4560.823924,0.718924
4558.895457,0.718068
4556.966990,0.717273
4555.038524,0.716476
4553.110057,0.715665
4551.181590,0.714894
4549.253123,0.714181
4547.324656,0.713495
4545.396190,0.712846
4543.467723,0.712249
4541.539256,0.711670
4539.610789,0.711092
4537.682322,0.710538
4535.753856,0.709995
4533.825389,0.709415
4531.896922,0.708799
4529.968455,0.708147
4528.039988,0.707475
4526.111522,0.706847
4524.183055,0.706275
4522.254588,0.705698
4520.326121,0.705039
4518.397654,0.704283
4516.469188,0.703430
4514.540721,0.702466
4512.612254,0.701458
4510.683787,0.700466
4508.755320,0.699473
4506.826854,0.698461
4504.898387,0.697465
4502.969920,0.696543
4501.041453,0.695708
4499.112986,0.694937
4497.184520,0.694222
4495.256053,0.693537
4493.327586,0.692876
4491.399119,0.692323
4489.470652,0.691893
4487.542186,0.691540
4485.613719,0.691286
4483.685252,0.691117
4481.756785,0.690938
4479.828318,0.690744
4477.899852,0.690629
4475.971385,0.690609
4474.042918,0.690655
4472.114451,0.690795
4470.185984,0.691044
4468.257518,0.691389
4466.329051,0.691869
4464.400584,0.692529
4462.472117,0.693366
4460.543650,0.694370
4458.615184,0.695521
4456.686717,0.696726
4454.758250,0.697863
4452.829783,0.698845
4450.901316,0.699643
4448.972850,0.700271
4447.044383,0.700831
4445.115916,0.701585
4443.187449,0.702871
4441.258982,0.704968
4439.330516,0.708096
4437.402049,0.712376
4435.473582,0.717755
4433.545115,0.724049
4431.616648,0.730973
4429.688182,0.738149
4427.759715,0.745275
4425.831248,0.752446
4423.902781,0.760328
4421.974314,0.769810
4420.045848,0.781388
4418.117381,0.794574
4416.188914,0.807295
4414.260447,0.816233
4412.331980,0.818970
4410.403514,0.815831
4408.475047,0.809220
4406.546580,0.801820
4404.618113,0.795518
4402.689646,0.791065
4400.761180,0.788407
4398.832713,0.787382
4396.904246,0.787939
4394.975779,0.790031
4393.047312,0.793598
4391.118846,0.798503
4389.190379,0.804240
4387.261912,0.809435
4385.333445,0.811955
4383.404978,0.810258
4381.476512,0.804782
4379.548045,0.797767
4377.619578,0.791669
4375.691111,0.787887
4373.762644,0.786661
4371.834178,0.787336
4369.905711,0.788791
4367.977244,0.790244
4366.048777,0.791655
4364.120310,0.793450
4362.191844,0.796066
4360.263377,0.799529
4358.334910,0.803313
4356.406443,0.806690
4354.477976,0.809197
4352.549510,0.810638
4350.621043,0.810792
4348.692576,0.809402
4346.764109,0.806484
4344.835642,0.802593
4342.907176,0.798743
4340.978709,0.796013
4339.050242,0.795191
4337.121775,0.796690
4335.193308,0.800630
4333.264842,0.806819
4331.336375,0.814543
4329.407908,0.822263
4327.479441,0.827726
4325.550974,0.828892
4323.622508,0.825469
4321.694041,0.819493
4319.765574,0.814006
4317.837107,0.811431
4315.908640,0.812860
4313.980174,0.818096
4312.051707,0.826035
4310.123240,0.835219
4308.194773,0.844287
4306.266306,0.852117
4304.337840,0.857642
4302.409373,0.859726
4300.480906,0.857717
4298.552439,0.852132
4296.623972,0.844415
4294.695506,0.835834
4292.767039,0.826664
4290.838572,0.816592
4288.910105,0.805709
4286.981638,0.794977
4285.053172,0.785868
4283.124705,0.779617
4281.196238,0.776752
4279.267771,0.776927
4277.339304,0.779096
4275.410838,0.781982
4273.482371,0.784679
4271.553904,0.786939
4269.625437,0.788934
4267.696970,0.790845
4265.768504,0.792535
4263.840037,0.793557
4261.911570,0.793570
4259.983103,0.792758
4258.054636,0.791742
4256.126170,0.791099
4254.197703,0.791195
4252.269236,0.792236
4250.340769,0.794270
4248.412302,0.797164
4246.483836,0.800586
4244.555369,0.804036
4242.626902,0.807107
4240.698435,0.809824
4238.769968,0.812689
4236.841502,0.816466
4234.913035,0.822048
4232.984568,0.830323
4231.056101,0.841486
4229.127634,0.854293
4227.199168,0.866245
4225.270701,0.874594
4223.342234,0.878061
4221.413767,0.877597
4219.485300,0.874880
4217.556834,0.870723
4215.628367,0.865320
4213.699900,0.859277
4211.771433,0.853781
4209.842966,0.849960
4207.914500,0.848472
4205.986033,0.849599
4204.057566,0.853347
4202.129099,0.859176
4200.200632,0.865715
4198.272166,0.870716
4196.343699,0.871810
4194.415232,0.868094
4192.486765,0.860937
4190.558298,0.852867
4188.629832,0.845925
4186.701365,0.841065
4184.772898,0.838407
4182.844431,0.837498
4180.915964,0.837556
4178.987498,0.837911
4177.059031,0.838223
4175.130564,0.838553
4173.202097,0.839255
4171.273630,0.840532
4169.345164,0.842295
4167.416697,0.844289
4165.488230,0.846138
4163.559763,0.847429
4161.631296,0.848047
4159.702830,0.848553
4157.774363,0.849995
4155.845896,0.853303
4153.917429,0.858863
4151.988962,0.866319
4150.060496,0.874494
4148.132029,0.881625
4146.203562,0.885967
4144.275095,0.886671
4142.346628,0.884422
4140.418162,0.881228
4138.489695,0.879339
4136.561228,0.880076
4134.632761,0.883634
4132.704294,0.889579
4130.775828,0.896856
4128.847361,0.904155
4126.918894,0.910551
4124.990427,0.915535
4123.061960,0.919045
4121.133494,0.921579
4119.205027,0.923892
4117.276560,0.926654
4115.348093,0.930403
4113.419626,0.935220
4111.491160,0.940375
4109.562693,0.944665
4107.634226,0.947591
4105.705759,0.949828
4103.777292,0.952058
4101.848826,0.954414
4099.920359,0.957158
4097.991892,0.960481
4096.063425,0.964043
4094.134958,0.967534
4092.206492,0.971137
4090.278025,0.975277
4088.349558,0.980501
4086.421091,0.987108
4084.492624,0.994568
4082.564158,1.001979
4080.635691,1.008952
4078.707224,1.015774
4076.778757,1.023157
4074.850290,1.031734
4072.921824,1.041297
4070.993357,1.050886
4069.064890,1.059942
4067.136423,1.068811
4065.207956,1.078105
4063.279490,1.087826
4061.351023,1.097205
4059.422556,1.104737
4057.494089,1.108782
4055.565622,1.108957
4053.637156,1.106319
4051.708689,1.102483
4049.780222,1.098824
4047.851755,1.096082
4045.923288,1.094382
4043.994822,1.093577
4042.066355,1.093387
4040.137888,1.093781
4038.209421,1.094990
4036.280954,1.096625
4034.352488,1.097608
4032.424021,1.096853
4030.495554,1.094061
4028.567087,1.089950
4026.638620,1.085726
4024.710154,1.082520
4022.781687,1.080641
4020.853220,1.079857
4018.924753,1.080495
4016.996286,1.083021
4015.067820,1.087317
4013.139353,1.093096
4011.210886,1.099744
4009.282419,1.106180
4007.353952,1.110828
4005.425486,1.111763
4003.497019,1.108723
4001.568552,1.103126
3999.640085,1.096457
